 TWO-PHASE BOUNDARIES
       T         RHOLIQ        RHOVAP        PLIQ         PVAP        ELIQ         EVAP         SLIQ         SVAP        GLIQ         GVAP         PSILIQ      PSIVAP         NTY
  8.80698E+3  1.68058E+3  1.68058E+3  2.54743E+0  2.54743E+0  1.30859E+7  1.30859E+7  5.40214E+3  5.40214E+3 -3.29720E+7 -3.29720E+7  8.26170E-1  8.26170E-1      0
  8.69638E+3  1.81356E+3  1.34931E+3  2.38528E+0  2.37856E+0  1.25108E+7  1.41416E+7  5.32439E+3  5.56383E+3 -3.24742E+7 -3.24779E+7  4.84291E-1  8.14714E-1     60
  8.58578E+3  1.96991E+3  1.26176E+3  2.23303E+0  2.23303E+0  1.18848E+7  1.43419E+7  5.24054E+3  5.60084E+3 -3.19731E+7 -3.19731E+7  4.16611E-1  9.11047E-1     13
  8.47518E+3  2.05747E+3  1.18304E+3  2.09193E+0  2.09193E+0  1.14902E+7  1.45156E+7  5.18902E+3  5.63468E+3 -3.14683E+7 -3.14683E+7  3.83692E-1  1.01401E+0     12
  8.36458E+3  2.12213E+3  1.11047E+3  1.95506E+0  1.95506E+0  1.11715E+7  1.46714E+7  5.14779E+3  5.66658E+3 -3.09639E+7 -3.09639E+7  3.61088E-1  1.12634E+0     12
  8.25398E+3  2.17588E+3  1.04257E+3  1.82249E+0  1.82249E+0  1.08892E+7  1.48143E+7  5.11134E+3  5.69722E+3 -3.04597E+7 -3.04597E+7  3.43262E-1  1.25048E+0     11
  8.14339E+3  2.22286E+3  9.78380E+2  1.69431E+0  1.69431E+0  1.06299E+7  1.49473E+7  5.07779E+3  5.72706E+3 -2.99559E+7 -2.99559E+7  3.28326E-1  1.38914E+0     11
  8.03279E+3  2.26509E+3  9.17242E+2  1.57065E+0  1.57065E+0  1.03868E+7  1.50730E+7  5.04618E+3  5.75645E+3 -2.94524E+7 -2.94524E+7  3.15362E-1  1.54550E+0     10
  7.92219E+3  2.30375E+3  8.58683E+2  1.45160E+0  1.45160E+0  1.01560E+7  1.51928E+7  5.01598E+3  5.78566E+3 -2.89492E+7 -2.89492E+7  3.03842E-1  1.72334E+0     10
  7.81159E+3  2.33960E+3  8.02372E+2  1.33727E+0  1.33727E+0  9.93495E+6  1.53081E+7  4.98684E+3  5.81491E+3 -2.84463E+7 -2.84463E+7  2.93431E-1  1.92728E+0     10
  7.70099E+3  2.37317E+3  7.48076E+2  1.22776E+0  1.22776E+0  9.72200E+6  1.54198E+7  4.95850E+3  5.84437E+3 -2.79438E+7 -2.79438E+7  2.83901E-1  2.16300E+0     10
  7.59039E+3  2.40484E+3  6.95639E+2  1.12315E+0  1.12315E+0  9.51586E+6  1.55286E+7  4.93080E+3  5.87418E+3 -2.74416E+7 -2.74416E+7  2.75089E-1  2.43761E+0      9
  7.47979E+3  2.43488E+3  6.44962E+2  1.02353E+0  1.02353E+0  9.31558E+6  1.56350E+7  4.90359E+3  5.90447E+3 -2.69398E+7 -2.69398E+7  2.66874E-1  2.76001E+0      9
  7.36919E+3  2.46353E+3  5.95991E+2  9.28969E-1  9.28969E-1  9.12044E+6  1.57393E+7  4.87678E+3  5.93536E+3 -2.64383E+7 -2.64383E+7  2.59163E-1  3.14153E+0      9
  7.25860E+3  2.49095E+3  5.48707E+2  8.39529E-1  8.39529E-1  8.92986E+6  1.58417E+7  4.85027E+3  5.96692E+3 -2.59372E+7 -2.59372E+7  2.51884E-1  3.59669E+0      9
  7.14800E+3  2.51728E+3  5.03124E+2  7.55254E-1  7.55254E-1  8.74338E+6  1.59425E+7  4.82400E+3  5.99925E+3 -2.54365E+7 -2.54365E+7  2.44981E-1  4.14424E+0      9
  7.03740E+3  2.54263E+3  4.59278E+2  6.76174E-1  6.76174E-1  8.56064E+6  1.60416E+7  4.79791E+3  6.03242E+3 -2.49363E+7 -2.49363E+7  2.38405E-1  4.80865E+0      8
  6.92680E+3  2.56710E+3  4.17226E+2  6.02300E-1  6.02300E-1  8.38132E+6  1.61388E+7  4.77196E+3  6.06650E+3 -2.44366E+7 -2.44366E+7  2.32119E-1  5.62209E+0      8
  6.81620E+3  2.59076E+3  3.77036E+2  5.33618E-1  5.33618E-1  8.20515E+6  1.62342E+7  4.74610E+3  6.10153E+3 -2.39373E+7 -2.39373E+7  2.26090E-1  6.62733E+0      8
  6.70560E+3  2.61368E+3  3.38790E+2  4.70093E-1  4.70093E-1  8.03193E+6  1.63274E+7  4.72028E+3  6.13757E+3 -2.34387E+7 -2.34387E+7  2.20293E-1  7.88172E+0      8
  6.59500E+3  2.63589E+3  3.02571E+2  4.11664E-1  4.11664E-1  7.86146E+6  1.64183E+7  4.69449E+3  6.17467E+3 -2.29408E+7 -2.29408E+7  2.14703E-1  9.46294E+0      8
  6.48441E+3  2.65746E+3  2.68462E+2  3.58239E-1  3.58239E-1  7.69359E+6  1.65064E+7  4.66870E+3  6.21287E+3 -2.24436E+7 -2.24436E+7  2.09302E-1  1.14773E+1      8
  6.37381E+3  2.67842E+3  2.36544E+2  3.09700E-1  3.09700E-1  7.52818E+6  1.65915E+7  4.64286E+3  6.25219E+3 -2.19472E+7 -2.19472E+7  2.04073E-1  1.40718E+1      8
  6.26321E+3  2.69879E+3  2.06883E+2  2.65897E-1  2.65897E-1  7.36509E+6  1.66731E+7  4.61696E+3  6.29268E+3 -2.14517E+7 -2.14517E+7  1.99000E-1  1.74517E+1      8
  6.15261E+3  2.71860E+3  1.79531E+2  2.26651E-1  2.26651E-1  7.20424E+6  1.67508E+7  4.59099E+3  6.33436E+3 -2.09573E+7 -2.09573E+7  1.94072E-1  2.19073E+1      7
  6.04201E+3  2.73788E+3  1.54520E+2  1.91753E-1  1.91753E-1  7.04551E+6  1.68242E+7  4.56490E+3  6.37725E+3 -2.04640E+7 -2.04640E+7  1.89276E-1  2.78529E+1      7
  5.93141E+3  2.75665E+3  1.31853E+2  1.60968E-1  1.60968E-1  6.88881E+6  1.68928E+7  4.53868E+3  6.42138E+3 -1.99720E+7 -1.99720E+7  1.84603E-1  3.58869E+1      7
  5.82081E+3  2.77491E+3  1.11510E+2  1.34037E-1  1.34037E-1  6.73408E+6  1.69563E+7  4.51232E+3  6.46678E+3 -1.94815E+7 -1.94815E+7  1.80043E-1  4.68837E+1      7
  5.71021E+3  2.79269E+3  9.34383E+1  1.10681E-1  1.10681E-1  6.58122E+6  1.70142E+7  4.48578E+3  6.51347E+3 -1.89924E+7 -1.89924E+7  1.75588E-1  6.21355E+1      7
  5.59962E+3  2.81000E+3  7.75542E+1  9.06078E-2  9.06078E-2  6.43016E+6  1.70661E+7  4.45905E+3  6.56146E+3 -1.85051E+7 -1.85051E+7  1.71230E-1  8.35751E+1      7
  5.48902E+3  2.82685E+3  6.37471E+1  7.35146E-2  7.35146E-2  6.28083E+6  1.71118E+7  4.43210E+3  6.61079E+3 -1.80197E+7 -1.80197E+7  1.66964E-1  1.14130E+2      6
  5.37842E+3  2.84325E+3  5.18807E+1  5.90972E-2  5.90972E-2  6.13316E+6  1.71509E+7  4.40492E+3  6.66149E+3 -1.75362E+7 -1.75362E+7  1.62781E-1  1.58291E+2      6
  5.26782E+3  2.85922E+3  4.17987E+1  4.70546E-2  4.70546E-2  5.98709E+6  1.71834E+7  4.37747E+3  6.71361E+3 -1.70549E+7 -1.70549E+7  1.58677E-1  2.23044E+2      6
  5.15722E+3  2.87477E+3  3.33313E+1  3.70956E-2  3.70956E-2  5.84255E+6  1.72092E+7  4.34974E+3  6.76720E+3 -1.65758E+7 -1.65758E+7  1.54645E-1  3.19411E+2      6
  5.04662E+3  2.88991E+3  2.63016E+1  2.89432E-2  2.89432E-2  5.69946E+6  1.72281E+7  4.32169E+3  6.82233E+3 -1.60992E+7 -1.60992E+7  1.50681E-1  4.65054E+2      6
  4.93602E+3  2.90466E+3  2.05324E+1  2.23392E-2  2.23392E-2  5.55776E+6  1.72403E+7  4.29330E+3  6.87911E+3 -1.56252E+7 -1.56252E+7  1.46780E-1  6.88746E+2      5
  4.82543E+3  2.91903E+3  1.58518E+1  1.70468E-2  1.70468E-2  5.41739E+6  1.72461E+7  4.26454E+3  6.93767E+3 -1.51538E+7 -1.51538E+7  1.42938E-1  1.03819E+3      5
  4.71483E+3  2.93302E+3  1.20979E+1  1.28526E-2  1.28526E-2  5.27828E+6  1.72455E+7  4.23538E+3  6.99815E+3 -1.46853E+7 -1.46853E+7  1.39150E-1  1.59399E+3      5
  4.60423E+3  2.94667E+3  9.12204E+0  9.56991E-3  9.56734E-3  5.14037E+6  1.72390E+7  4.20578E+3  7.06076E+3 -1.42196E+7 -1.42196E+7  1.35411E-1  2.49518E+3      4
  4.49363E+3  2.95998E+3  6.79090E+0  7.02691E-3  7.02532E-3  5.00358E+6  1.72269E+7  4.17571E+3  7.12573E+3 -1.37571E+7 -1.37571E+7  1.31720E-1  3.98682E+3      4
  4.38303E+3  2.97296E+3  4.98712E+0  5.08476E-3  5.08379E-3  4.86787E+6  1.72098E+7  4.14513E+3  7.19333E+3 -1.32976E+7 -1.32976E+7  1.28072E-1  6.51140E+3      4
  4.27243E+3  2.98563E+3  3.60931E+0  3.62189E-3  3.62131E-3  4.73316E+6  1.71880E+7  4.11401E+3  7.26390E+3 -1.28414E+7 -1.28414E+7  1.24464E-1  1.08886E+4      4
  4.16183E+3  2.99801E+3  2.57119E+0  2.53631E-3  2.53597E-3  4.59939E+6  1.71621E+7  4.08228E+3  7.33782E+3 -1.23886E+7 -1.23886E+7  1.20894E-1  1.86798E+4      4
  4.05124E+3  3.01011E+3  1.80046E+0  1.74358E-3  1.74337E-3  4.46651E+6  1.71328E+7  4.04993E+3  7.41552E+3 -1.19392E+7 -1.19392E+7  1.17359E-1  3.29505E+4      4
  3.94064E+3  3.02194E+3  1.23731E+0  1.17460E-3  1.17460E-3  4.33446E+6  1.71006E+7  4.01688E+3  7.49750E+3 -1.14933E+7 -1.14933E+7  1.13856E-1  5.99214E+4      5
  3.83004E+3  3.03351E+3  8.58940E-1  7.86256E-4  7.86256E-4  4.20318E+6  1.70374E+7  3.98308E+3  7.57315E+3 -1.10510E+7 -1.10510E+7  1.10383E-1  1.07269E+5      6
  3.71944E+3  3.04484E+3  5.60172E-1  5.03605E-4  5.03605E-4  4.07261E+6  1.70101E+7  3.94849E+3  7.66870E+3 -1.06125E+7 -1.06125E+7  1.06939E-1  2.12349E+5      6
  3.60884E+3  3.05594E+3  3.57156E-1  3.14519E-4  3.14519E-4  3.94271E+6  1.69797E+7  3.91303E+3  7.76975E+3 -1.01779E+7 -1.01779E+7  1.03520E-1  4.36140E+5      5
  3.49824E+3  3.06682E+3  2.21900E-1  1.90967E-4  1.90967E-4  3.81341E+6  1.69475E+7  3.87664E+3  7.87735E+3 -9.74718E+6 -9.74718E+6  1.00126E-1  9.34342E+5      5
  3.38764E+3  3.07749E+3  1.33876E-1  1.12363E-4  1.12363E-4  3.68466E+6  1.69149E+7  3.83925E+3  7.99267E+3 -9.32054E+6 -9.32054E+6  9.67551E-2  2.09975E+6      6
  3.35947E+3  3.08016E+3  1.19674E-1  1.00000E-4  1.00000E-4  3.65199E+6  1.69068E+7  3.82944E+3  8.02434E+3 -9.21291E+6 -9.21291E+6  9.59017E-2  2.83378E+6      0
  3.27704E+3  3.08796E+3  7.81336E-2  6.38375E-5  6.38375E-5  3.55643E+6  1.68830E+7  3.80076E+3  8.11697E+3 -8.89809E+6 -8.89809E+6  9.34052E-2  4.98089E+6      7
  3.22175E+3  3.09313E+3  5.88764E-2  4.74309E-5  4.74309E-5  3.49248E+6  1.68677E+7  3.78108E+3  8.18293E+3 -8.68847E+6 -8.68847E+6  9.17377E-2  7.84511E+6      7
  3.16645E+3  3.09825E+3  4.39282E-2  3.48796E-5  3.48796E-5  3.42865E+6  1.68531E+7  3.76109E+3  8.25170E+3 -8.47994E+6 -8.47994E+6  9.00750E-2  1.25575E+7      8
  3.11115E+3  3.10332E+3  3.24326E-2  2.53720E-5  2.53720E-5  3.36492E+6  1.68393E+7  3.74079E+3  8.32349E+3 -8.27253E+6 -8.27253E+6  8.84168E-2  2.04478E+7      5
  3.05585E+3  3.10835E+3  2.36798E-2  1.82447E-5  1.82447E-5  3.30129E+6  1.68264E+7  3.72015E+3  8.39851E+3 -8.06625E+6 -8.06625E+6  8.67630E-2  3.39066E+7      7
  3.00055E+3  3.11334E+3  1.70859E-2  1.29607E-5  1.29607E-5  3.23776E+6  1.68146E+7  3.69917E+3  8.47704E+3 -7.86112E+6 -7.86112E+6  8.51135E-2  5.73187E+7      7
  2.94525E+3  3.11828E+3  1.21744E-2  9.08918E-6  9.08917E-6  3.17431E+6  1.68041E+7  3.67782E+3  8.55932E+3 -7.65716E+6 -7.65716E+6  8.34679E-2  9.89008E+7      7
  2.88995E+3  3.12318E+3  8.55984E-3  6.28766E-6  6.28765E-6  3.11094E+6  1.67951E+7  3.65610E+3  8.64565E+3 -7.45439E+6 -7.45439E+6  8.18262E-2  1.74399E+8      7
  2.83465E+3  3.12805E+3  5.93382E-3  4.28713E-6  4.28713E-6  3.04765E+6  1.67877E+7  3.63399E+3  8.73634E+3 -7.25283E+6 -7.25284E+6  8.01882E-2  3.14715E+8      7
  2.77935E+3  3.13287E+3  4.05197E-3  2.87855E-6  2.87855E-6  2.98444E+6  1.67822E+7  3.61147E+3  8.83174E+3 -7.05251E+6 -7.05251E+6  7.85537E-2  5.82042E+8      6
  2.72405E+3  3.13766E+3  2.72298E-3  1.90151E-6  1.90151E-6  2.92129E+6  1.67787E+7  3.58852E+3  8.93223E+3 -6.85344E+6 -6.85344E+6  7.69225E-2  1.10493E+9      8
  2.66875E+3  3.14241E+3  1.79895E-3  1.23451E-6  1.23451E-6  2.85821E+6  1.67775E+7  3.56512E+3  9.03822E+3 -6.65566E+6 -6.65566E+6  7.52945E-2  2.15670E+9      8
  2.61345E+3  3.14712E+3  1.16710E-3  7.86825E-7  7.86825E-7  2.79519E+6  1.67788E+7  3.54126E+3  9.15015E+3 -6.45918E+6 -6.45918E+6  7.36695E-2  4.33624E+9      6
  2.55815E+3  3.15180E+3  7.41979E-4  4.91496E-7  4.91496E-7  2.73222E+6  1.67841E+7  3.51690E+3  9.26917E+3 -6.26403E+6 -6.26403E+6  7.20473E-2  1.00000+100     10
  2.50285E+3  3.15644E+3  4.62582E-4  3.00834E-7  3.00834E-7  2.66931E+6  1.67909E+7  3.49204E+3  9.39441E+3 -6.07025E+6 -6.07025E+6  7.04276E-2  1.00000+100     10
  2.44755E+3  3.16105E+3  2.82072E-4  1.80053E-7  1.80053E-7  2.60645E+6  1.68011E+7  3.46664E+3  9.52730E+3 -5.87785E+6 -5.87785E+6  6.88105E-2  1.00000+100      9
  2.39226E+3  3.16563E+3  1.67971E-4  1.05214E-7  1.05214E-7  2.54363E+6  1.68150E+7  3.44068E+3  9.66854E+3 -5.68687E+6 -5.68687E+6  6.71956E-2  1.00000+100     11
  2.33696E+3  3.17017E+3  9.75169E-5  5.99257E-8  5.99257E-8  2.48085E+6  1.68331E+7  3.41413E+3  9.81887E+3 -5.49735E+6 -5.49735E+6  6.55827E-2  1.00000+100     10
  2.28166E+3  3.17469E+3  5.50927E-5  3.32058E-8  3.32058E-8  2.41811E+6  1.68556E+7  3.38696E+3  9.97915E+3 -5.30931E+6 -5.30931E+6  6.39718E-2  1.00000+100     10
  2.22636E+3  3.17917E+3  3.02269E-5  1.78647E-8  1.78647E-8  2.35541E+6  1.68832E+7  3.35913E+3  1.01504E+4 -5.12279E+6 -5.12279E+6  6.23626E-2  1.00000+100      9
  2.17106E+3  3.18362E+3  1.60696E-5  9.31077E-9  9.31077E-9  2.29274E+6  1.69162E+7  3.33063E+3  1.03336E+4 -4.93783E+6 -4.93783E+6  6.07548E-2  1.00000+100     10
  2.09869E+3  3.18940E+3  6.67492E-6  3.76694E-9  3.76694E-9  2.21078E+6  1.69687E+7  3.29223E+3  1.05935E+4 -4.69819E+6 -4.69819E+6  5.86528E-2  1.00000+100      7
  2.02632E+3  3.19513E+3  2.59954E-6  1.42835E-9  1.42834E-9  2.12886E+6  1.70329E+7  3.25251E+3  1.08794E+4 -4.46138E+6 -4.46138E+6  5.65526E-2  1.00000+100      9
  1.95395E+3  3.20081E+3  9.42448E-7  5.04005E-10  5.03990E-10  2.04698E+6  1.71108E+7  3.21136E+3  1.11949E+4 -4.22749E+6 -4.22749E+6  5.44538E-2  1.00000+100     13
  1.88158E+3  3.20645E+3  3.15471E-7  1.64132E-10  1.64134E-10  1.96515E+6  1.72042E+7  3.16868E+3  1.15447E+4 -3.99664E+6 -3.99664E+6  5.23560E-2  1.00000+100     15
  1.80921E+3  3.21204E+3  9.65770E-8  4.88593E-11  4.88702E-11  1.88334E+6  1.73154E+7  3.12434E+3  1.19343E+4 -3.76893E+6 -3.76893E+6  5.02587E-2  1.00000+100     11
  1.73685E+3  3.21759E+3  2.67421E-8  1.31607E-11  1.31573E-11  1.80157E+6  1.74473E+7  3.07821E+3  1.23702E+4 -3.54450E+6 -3.54450E+6  4.81616E-2  1.00000+100     13
  1.66448E+3  3.22309E+3  6.61150E-9  3.15874E-12  3.16191E-12  1.71983E+6  1.76030E+7  3.03014E+3  1.28605E+4 -3.32347E+6 -3.32347E+6  4.60641E-2  1.00000+100     14
  1.59211E+3  3.22855E+3  1.43735E-9  6.71649E-13  6.68010E-13  1.63812E+6  1.77861E+7  2.97994E+3  1.34150E+4 -3.10600E+6 -3.10600E+6  4.39660E-2  1.00000+100     14
  1.51974E+3  3.23398E+3  2.69854E-10  1.15967E-13  1.21848E-13  1.55643E+6  1.80007E+7  2.92743E+3  1.40456E+4 -2.89225E+6 -2.89225E+6  4.18669E-2  1.00000+100     16
  1.44737E+3  3.23936E+3  4.28168E-11  1.68800E-14  1.87784E-14  1.47476E+6  1.82512E+7  2.87237E+3  1.47670E+4 -2.68238E+6 -2.68238E+6  3.97664E-2  1.00000+100     16
  1.37500E+3  3.24471E+3  5.59377E-12  1.86682E-14  2.38215E-15  1.39312E+6  1.85422E+7  2.81450E+3  1.55970E+4 -2.47660E+6 -2.47660E+6  3.76643E-2  1.00000+100     16
  1.30263E+3  3.25002E+3  5.82966E-13 -8.36849E-15  2.40948E-16  1.31150E+6  1.88781E+7  2.75352E+3  1.65571E+4 -2.27512E+6 -2.27512E+6  3.55604E-2  1.00000+100     19
  1.23027E+3  3.25530E+3  4.66134E-14 -6.12736E-15  1.86845E-17  1.22991E+6  1.92625E+7  2.68907E+3  1.76732E+4 -2.07817E+6 -2.07817E+6  3.34544E-2  1.00000+100     20
  1.15790E+3  3.26054E+3  2.72428E-15  1.00136E-15  1.05772E-18  1.14835E+6  1.96965E+7  2.62074E+3  1.89758E+4 -1.88602E+6 -1.88602E+6  3.13465E-2  1.00000+100     21
  1.08553E+3  3.26575E+3  1.09468E-16  2.86102E-16  4.10823E-20  1.06683E+6  2.01774E+7  2.54804E+3  2.04997E+4 -1.69898E+6 -1.69898E+6  2.92367E-2  1.00000+100     22
  1.01316E+3  3.27092E+3  2.79574E-18  2.99215E-15  1.01086E-21  9.85353E+5  2.06963E+7  2.47036E+3  2.22833E+4 -1.51737E+6 -1.51737E+6  2.71255E-2  1.00000+100     22
  9.40792E+2  3.27606E+3  4.09506E-20 -2.10881E-14  1.41935E-23  9.03934E+5  2.12355E+7  2.38698E+3  2.43678E+4 -1.34158E+6 -1.34158E+6  2.50135E-2  1.00000+100     22
  8.68423E+2  3.28117E+3  2.99849E-22  4.47035E-15  9.88967E-26  8.22592E+5  2.17669E+7  2.29700E+3  2.67959E+4 -1.17206E+6 -1.17206E+6  2.29018E-2  1.00000+100     25
  7.96055E+2  3.28625E+3  9.09102E-25  5.30481E-15  2.82457E-28  7.41350E+5  2.22543E+7  2.19932E+3  2.96157E+4 -1.00933E+6 -1.00933E+6  2.07921E-2  1.00000+100     29
  7.23686E+2  3.29130E+3  8.75145E-28  2.94447E-15  2.52807E-31  6.60248E+5  2.26593E+7  2.09250E+3  3.28921E+4 -8.53980E+5 -8.53980E+5  1.86869E-2  1.00000+100     32
  6.51317E+2  3.29631E+3  1.81818E-31  1.14441E-15  4.80601E-35  5.79340E+5  2.29526E+7  1.97471E+3  3.67334E+4 -7.06746E+5 -7.06746E+5  1.65895E-2  1.00000+100     35
  5.78949E+2  3.30129E+3  4.55572E-36 -1.44958E-14  1.08175E-39  4.98712E+5  2.31257E+7  1.84348E+3  4.13388E+4 -5.68506E+5 -5.68506E+5  1.45051E-2  1.00000+100     34
  5.06580E+2  3.30622E+3  5.50548E-42  1.00911E-14  1.15014E-45  4.18497E+5  2.31950E+7  1.69547E+3  4.70717E+4 -4.40345E+5 -4.40345E+5  1.24406E-2  1.00000+100     42
  4.34212E+2  3.31109E+3  8.53401E-53 -1.00672E-14  7.66173E-57  3.38924E+5  1.27286E+7  1.52599E+3  3.02682E+4 -3.23639E+5 -3.23639E+5  1.04055E-2  1.00000+100     53
  3.61843E+2  3.31588E+3  8.36106E-65  1.58846E-15  6.25538E-69  2.60410E+5  1.26887E+7  1.32822E+3  3.58853E+4 -2.20171E+5 -2.20576E+5  8.41277E-3  1.00000+100     64
  2.89474E+2  3.32054E+3  7.19844E-83  5.04255E-15  4.30845E-87  1.83795E+5  1.26500E+7  1.09212E+3  4.43672E+4 -1.32328E+5 -1.32533E+5  6.47907E-3  1.00000+100     81
  2.17106E+2  3.32494E+3  4.52328E-113  2.37823E-15  2.03047E-117  1.10983E+5  1.26123E+7  8.03177E+2  5.85966E+4 -6.33811E+4 -6.37803E+4  4.62519E-3  1.00000+100    105
